average flux in [cosZ =-0.80 -- -0.70, phi_Az =   0 -- 360]
Enu        NuMu       NuMubar    NuE        NuEbar  
1.0000E-01 6.2061E+03 6.2891E+03 3.0445E+03 2.9599E+03
1.1220E-01 5.5963E+03 5.6634E+03 2.7432E+03 2.6503E+03
1.2589E-01 5.0098E+03 5.0652E+03 2.4526E+03 2.3428E+03
1.4125E-01 4.4560E+03 4.4849E+03 2.1761E+03 2.0535E+03
1.5849E-01 3.9183E+03 3.9389E+03 1.9110E+03 1.7868E+03
1.7783E-01 3.4050E+03 3.4195E+03 1.6598E+03 1.5377E+03
1.9953E-01 2.9263E+03 2.9257E+03 1.4248E+03 1.3108E+03
2.2387E-01 2.4829E+03 2.4791E+03 1.2138E+03 1.1059E+03
2.5119E-01 2.0862E+03 2.0791E+03 1.0242E+03 9.2281E+02
2.8184E-01 1.7343E+03 1.7226E+03 8.5462E+02 7.6372E+02
3.1623E-01 1.4275E+03 1.4146E+03 7.0533E+02 6.2577E+02
3.5481E-01 1.1656E+03 1.1512E+03 5.7536E+02 5.0700E+02
3.9811E-01 9.4251E+02 9.2844E+02 4.6532E+02 4.0635E+02
4.4668E-01 7.5623E+02 7.4230E+02 3.7279E+02 3.2310E+02
5.0119E-01 6.0114E+02 5.8823E+02 2.9580E+02 2.5538E+02
5.6234E-01 4.7413E+02 4.6202E+02 2.3323E+02 1.9955E+02
6.3096E-01 3.7219E+02 3.5999E+02 1.8201E+02 1.5381E+02
7.0795E-01 2.8987E+02 2.7930E+02 1.4075E+02 1.1820E+02
7.9433E-01 2.2416E+02 2.1571E+02 1.0823E+02 9.0245E+01
8.9125E-01 1.7292E+02 1.6427E+02 8.1961E+01 6.7883E+01
1.0000E+00 1.3226E+02 1.2492E+02 6.1937E+01 5.0894E+01
1.1220E+00 1.0088E+02 9.4796E+01 4.6414E+01 3.7901E+01
1.2589E+00 7.6663E+01 7.1371E+01 3.4510E+01 2.8105E+01
1.4125E+00 5.8059E+01 5.3386E+01 2.5543E+01 2.0666E+01
1.5849E+00 4.3691E+01 3.9806E+01 1.8750E+01 1.5099E+01
1.7783E+00 3.2673E+01 2.9524E+01 1.3663E+01 1.0921E+01
1.9953E+00 2.4355E+01 2.1721E+01 9.9184E+00 7.8532E+00
2.2387E+00 1.8064E+01 1.5919E+01 7.1306E+00 5.6263E+00
2.5119E+00 1.3337E+01 1.1636E+01 5.0919E+00 4.0082E+00
2.8184E+00 9.7808E+00 8.4103E+00 3.6130E+00 2.8213E+00
3.1623E+00 7.1617E+00 6.1108E+00 2.5415E+00 1.9644E+00
3.5481E+00 5.2207E+00 4.4135E+00 1.7767E+00 1.3679E+00
3.9811E+00 3.8006E+00 3.1759E+00 1.2353E+00 9.4610E-01
4.4668E+00 2.7541E+00 2.2781E+00 8.5394E-01 6.5141E-01
5.0119E+00 1.9900E+00 1.6302E+00 5.8754E-01 4.4723E-01
5.6234E+00 1.4331E+00 1.1640E+00 4.0208E-01 3.0498E-01
6.3096E+00 1.0313E+00 8.2947E-01 2.7507E-01 2.0884E-01
7.0795E+00 7.4153E-01 5.9002E-01 1.8605E-01 1.4209E-01
7.9433E+00 5.3119E-01 4.2008E-01 1.2515E-01 9.5802E-02
8.9125E+00 3.7949E-01 2.9893E-01 8.3849E-02 6.3842E-02
1.0000E+01 2.7044E-01 2.1131E-01 5.6598E-02 4.2772E-02
1.1220E+01 1.9313E-01 1.4955E-01 3.7962E-02 2.8777E-02
1.2589E+01 1.3790E-01 1.0597E-01 2.5429E-02 1.9228E-02
1.4125E+01 9.8228E-02 7.4983E-02 1.6825E-02 1.2813E-02
1.5849E+01 6.9908E-02 5.3077E-02 1.1145E-02 8.5808E-03
1.7783E+01 4.9719E-02 3.7613E-02 7.4181E-03 5.7209E-03
1.9953E+01 3.5457E-02 2.6567E-02 4.9313E-03 3.8022E-03
2.2387E+01 2.5235E-02 1.8764E-02 3.3049E-03 2.5460E-03
2.5119E+01 1.7885E-02 1.3274E-02 2.1961E-03 1.7210E-03
2.8184E+01 1.2700E-02 9.3811E-03 1.4518E-03 1.1352E-03
3.1623E+01 8.9898E-03 6.5957E-03 9.7007E-04 7.6276E-04
3.5481E+01 6.3662E-03 4.6433E-03 6.4377E-04 5.1094E-04
3.9811E+01 4.5039E-03 3.2661E-03 4.3023E-04 3.4071E-04
4.4668E+01 3.1796E-03 2.2939E-03 2.8820E-04 2.2678E-04
5.0119E+01 2.2445E-03 1.6097E-03 1.9174E-04 1.5206E-04
5.6234E+01 1.5837E-03 1.1304E-03 1.2754E-04 1.0239E-04
6.3096E+01 1.1159E-03 7.9241E-04 8.5667E-05 6.8947E-05
7.0795E+01 7.8396E-04 5.5335E-04 5.7396E-05 4.6401E-05
7.9433E+01 5.5034E-04 3.8665E-04 3.8234E-05 3.1158E-05
8.9125E+01 3.8691E-04 2.6959E-04 2.5617E-05 2.0791E-05
1.0000E+02 2.7125E-04 1.8837E-04 1.7305E-05 1.4093E-05
1.1220E+02 1.8985E-04 1.3104E-04 1.1643E-05 9.5148E-06
1.2589E+02 1.3308E-04 9.1189E-05 7.8635E-06 6.4038E-06
1.4125E+02 9.3204E-05 6.3365E-05 5.2795E-06 4.3091E-06
1.5849E+02 6.5208E-05 4.3941E-05 3.5594E-06 2.9081E-06
1.7783E+02 4.5526E-05 3.0475E-05 2.4251E-06 1.9609E-06
1.9953E+02 3.1724E-05 2.1141E-05 1.6412E-06 1.3178E-06
2.2387E+02 2.2103E-05 1.4658E-05 1.1025E-06 8.9216E-07
2.5119E+02 1.5409E-05 1.0142E-05 7.4417E-07 6.0219E-07
2.8184E+02 1.0739E-05 7.0076E-06 5.0856E-07 4.0638E-07
3.1623E+02 7.4841E-06 4.8561E-06 3.4132E-07 2.7442E-07
3.5481E+02 5.1799E-06 3.3399E-06 2.3054E-07 1.8397E-07
3.9811E+02 3.5981E-06 2.3027E-06 1.5561E-07 1.2375E-07
4.4668E+02 2.4958E-06 1.5847E-06 1.0478E-07 8.3043E-08
5.0119E+02 1.7264E-06 1.0873E-06 7.0831E-08 5.5933E-08
5.6234E+02 1.1990E-06 7.5033E-07 4.8014E-08 3.7643E-08
6.3096E+02 8.2159E-07 5.1045E-07 3.2305E-08 2.5300E-08
7.0795E+02 5.6526E-07 3.4953E-07 2.1662E-08 1.6806E-08
7.9433E+02 3.8834E-07 2.3880E-07 1.4456E-08 1.1171E-08
8.9125E+02 2.6579E-07 1.6244E-07 9.6319E-09 7.5375E-09
1.0000E+03 1.8316E-07 1.1120E-07 6.4932E-09 5.0357E-09
1.1220E+03 1.2402E-07 7.4765E-08 4.3417E-09 3.2997E-09
1.2589E+03 8.4221E-08 5.0606E-08 2.9124E-09 2.1748E-09
1.4125E+03 5.7100E-08 3.4154E-08 1.9400E-09 1.4581E-09
1.5849E+03 3.8704E-08 2.2990E-08 1.2992E-09 9.8035E-10
1.7783E+03 2.6198E-08 1.5440E-08 8.6874E-10 6.5710E-10
1.9953E+03 1.7648E-08 1.0393E-08 5.6997E-10 4.3343E-10
2.2387E+03 1.1834E-08 6.9252E-09 3.8051E-10 2.8159E-10
2.5119E+03 7.9152E-09 4.6039E-09 2.5018E-10 1.7978E-10
2.8184E+03 5.3079E-09 3.0898E-09 1.6375E-10 1.1797E-10
3.1623E+03 3.6428E-09 2.1038E-09 1.0895E-10 7.9534E-11
3.5481E+03 2.3583E-09 1.3596E-09 7.2469E-11 5.1523E-11
3.9811E+03 1.5731E-09 9.0051E-10 4.7464E-11 3.3486E-11
4.4668E+03 1.0437E-09 5.9374E-10 3.0886E-11 2.2616E-11
5.0119E+03 6.9036E-10 3.8969E-10 2.0704E-11 1.5201E-11
5.6234E+03 4.5699E-10 2.5528E-10 1.3658E-11 9.7344E-12
6.3096E+03 3.0222E-10 1.6951E-10 8.8882E-12 6.1594E-12
7.0795E+03 1.9977E-10 1.1173E-10 5.7684E-12 4.0640E-12
7.9433E+03 1.3181E-10 7.3261E-11 3.7571E-12 2.6144E-12
8.9125E+03 8.6628E-11 4.7907E-11 2.4659E-12 1.6757E-12
1.0000E+04 5.6704E-11 3.1062E-11 1.5949E-12 1.1100E-12
