average flux in [cosZ =-0.60 -- -0.50, phi_Az =   0 -- 360]
Enu        NuMu       NuMubar    NuE        NuEbar  
1.0000E-01 7.8301E+03 7.9542E+03 3.8802E+03 3.6477E+03
1.1220E-01 6.9294E+03 7.0267E+03 3.4498E+03 3.2238E+03
1.2589E-01 6.1103E+03 6.1684E+03 3.0421E+03 2.8189E+03
1.4125E-01 5.3419E+03 5.3761E+03 2.6569E+03 2.4418E+03
1.5849E-01 4.6230E+03 4.6540E+03 2.2989E+03 2.0942E+03
1.7783E-01 3.9640E+03 3.9812E+03 1.9730E+03 1.7833E+03
1.9953E-01 3.3588E+03 3.3587E+03 1.6819E+03 1.5070E+03
2.2387E-01 2.8104E+03 2.8099E+03 1.4213E+03 1.2611E+03
2.5119E-01 2.3267E+03 2.3280E+03 1.1896E+03 1.0448E+03
2.8184E-01 1.9099E+03 1.9094E+03 9.8528E+02 8.5780E+02
3.1623E-01 1.5577E+03 1.5556E+03 8.0810E+02 6.9976E+02
3.5481E-01 1.2623E+03 1.2578E+03 6.5527E+02 5.6480E+02
3.9811E-01 1.0138E+03 1.0070E+03 5.2734E+02 4.5089E+02
4.4668E-01 8.0785E+02 8.0002E+02 4.2311E+02 3.5829E+02
5.0119E-01 6.3867E+02 6.3032E+02 3.3525E+02 2.8299E+02
5.6234E-01 5.0201E+02 4.9288E+02 2.6327E+02 2.2132E+02
6.3096E-01 3.9168E+02 3.8361E+02 2.0495E+02 1.7161E+02
7.0795E-01 3.0468E+02 2.9656E+02 1.5847E+02 1.3208E+02
7.9433E-01 2.3580E+02 2.2832E+02 1.2196E+02 1.0096E+02
8.9125E-01 1.8098E+02 1.7491E+02 9.3270E+01 7.6437E+01
1.0000E+00 1.3883E+02 1.3329E+02 7.0691E+01 5.7811E+01
1.1220E+00 1.0608E+02 1.0108E+02 5.3357E+01 4.3338E+01
1.2589E+00 8.0701E+01 7.6304E+01 3.9878E+01 3.2246E+01
1.4125E+00 6.1143E+01 5.7410E+01 2.9636E+01 2.3878E+01
1.5849E+00 4.6185E+01 4.2926E+01 2.1956E+01 1.7533E+01
1.7783E+00 3.4612E+01 3.1891E+01 1.6140E+01 1.2814E+01
1.9953E+00 2.5770E+01 2.3571E+01 1.1782E+01 9.3554E+00
2.2387E+00 1.9113E+01 1.7357E+01 8.5258E+00 6.7452E+00
2.5119E+00 1.4119E+01 1.2682E+01 6.1687E+00 4.8187E+00
2.8184E+00 1.0416E+01 9.2550E+00 4.4061E+00 3.4141E+00
3.1623E+00 7.6068E+00 6.7044E+00 3.1308E+00 2.4165E+00
3.5481E+00 5.5570E+00 4.8599E+00 2.2178E+00 1.6941E+00
3.9811E+00 4.0427E+00 3.5032E+00 1.5545E+00 1.1853E+00
4.4668E+00 2.9400E+00 2.5156E+00 1.0831E+00 8.2471E-01
5.0119E+00 2.1324E+00 1.8081E+00 7.5038E-01 5.7179E-01
5.6234E+00 1.5384E+00 1.2943E+00 5.1601E-01 3.9417E-01
6.3096E+00 1.1051E+00 9.2202E-01 3.5568E-01 2.6892E-01
7.0795E+00 7.9535E-01 6.5854E-01 2.4512E-01 1.8296E-01
7.9433E+00 5.7039E-01 4.6634E-01 1.6713E-01 1.2533E-01
8.9125E+00 4.0799E-01 3.3012E-01 1.1241E-01 8.5221E-02
1.0000E+01 2.9217E-01 2.3529E-01 7.6154E-02 5.7253E-02
1.1220E+01 2.0830E-01 1.6661E-01 5.1041E-02 3.8451E-02
1.2589E+01 1.4854E-01 1.1778E-01 3.4272E-02 2.5872E-02
1.4125E+01 1.0619E-01 8.3396E-02 2.2984E-02 1.7327E-02
1.5849E+01 7.5695E-02 5.9086E-02 1.5365E-02 1.1685E-02
1.7783E+01 5.4035E-02 4.1786E-02 1.0295E-02 7.8134E-03
1.9953E+01 3.8396E-02 2.9654E-02 6.8267E-03 5.2469E-03
2.2387E+01 2.7232E-02 2.0911E-02 4.5127E-03 3.4992E-03
2.5119E+01 1.9357E-02 1.4740E-02 2.9946E-03 2.3269E-03
2.8184E+01 1.3804E-02 1.0400E-02 2.0090E-03 1.5729E-03
3.1623E+01 9.8308E-03 7.3982E-03 1.3410E-03 1.0410E-03
3.5481E+01 6.9790E-03 5.2238E-03 8.9092E-04 6.9526E-04
3.9811E+01 4.9489E-03 3.6797E-03 5.9296E-04 4.6359E-04
4.4668E+01 3.5056E-03 2.5917E-03 3.9360E-04 3.0980E-04
5.0119E+01 2.4824E-03 1.8269E-03 2.6165E-04 2.0755E-04
5.6234E+01 1.7546E-03 1.2832E-03 1.7433E-04 1.3831E-04
6.3096E+01 1.2385E-03 9.0123E-04 1.1578E-04 9.2120E-05
7.0795E+01 8.7372E-04 6.3236E-04 7.7043E-05 6.1676E-05
7.9433E+01 6.1632E-04 4.4221E-04 5.1555E-05 4.1049E-05
8.9125E+01 4.3398E-04 3.0947E-04 3.4518E-05 2.7383E-05
1.0000E+02 3.0525E-04 2.1657E-04 2.3010E-05 1.8489E-05
1.1220E+02 2.1441E-04 1.5112E-04 1.5411E-05 1.2399E-05
1.2589E+02 1.5052E-04 1.0543E-04 1.0297E-05 8.3552E-06
1.4125E+02 1.0564E-04 7.3235E-05 6.8630E-06 5.6222E-06
1.5849E+02 7.3947E-05 5.0972E-05 4.6361E-06 3.7620E-06
1.7783E+02 5.1716E-05 3.5435E-05 3.1356E-06 2.5183E-06
1.9953E+02 3.6173E-05 2.4615E-05 2.0953E-06 1.6914E-06
2.2387E+02 2.5311E-05 1.7060E-05 1.4036E-06 1.1445E-06
2.5119E+02 1.7691E-05 1.1822E-05 9.5992E-07 7.7076E-07
2.8184E+02 1.2351E-05 8.2165E-06 6.4729E-07 5.2164E-07
3.1623E+02 8.6132E-06 5.6898E-06 4.3178E-07 3.5076E-07
3.5481E+02 5.9934E-06 3.9243E-06 2.9286E-07 2.3593E-07
3.9811E+02 4.1707E-06 2.7125E-06 1.9850E-07 1.5881E-07
4.4668E+02 2.8978E-06 1.8726E-06 1.3362E-07 1.0676E-07
5.0119E+02 2.0100E-06 1.2892E-06 8.9779E-08 7.1471E-08
5.6234E+02 1.4027E-06 8.9037E-07 6.0920E-08 4.8084E-08
6.3096E+02 9.6787E-07 6.1000E-07 4.1160E-08 3.2377E-08
7.0795E+02 6.6771E-07 4.1940E-07 2.7447E-08 2.1579E-08
7.9433E+02 4.6136E-07 2.8726E-07 1.8434E-08 1.4331E-08
8.9125E+02 3.1860E-07 1.9614E-07 1.2362E-08 9.6445E-09
1.0000E+03 2.1999E-07 1.3527E-07 8.3203E-09 6.4105E-09
1.1220E+03 1.4995E-07 9.1583E-08 5.5648E-09 4.2633E-09
1.2589E+03 1.0257E-07 6.2393E-08 3.7431E-09 2.8518E-09
1.4125E+03 6.9966E-08 4.2336E-08 2.5481E-09 1.9028E-09
1.5849E+03 4.7602E-08 2.8611E-08 1.6924E-09 1.2603E-09
1.7783E+03 3.2463E-08 1.9339E-08 1.1044E-09 8.2707E-10
1.9953E+03 2.1977E-08 1.3072E-08 7.4351E-10 5.5360E-10
2.2387E+03 1.4883E-08 8.7748E-09 4.9491E-10 3.6565E-10
2.5119E+03 1.0031E-08 5.8798E-09 3.2179E-10 2.4230E-10
2.8184E+03 6.7396E-09 3.9406E-09 2.1553E-10 1.6055E-10
3.1623E+03 4.6446E-09 2.6934E-09 1.4469E-10 1.0468E-10
3.5481E+03 3.0249E-09 1.7494E-09 9.5844E-11 6.8904E-11
3.9811E+03 2.0207E-09 1.1635E-09 6.1976E-11 4.6168E-11
4.4668E+03 1.3481E-09 7.7314E-10 4.1393E-11 3.0471E-11
5.0119E+03 8.9771E-10 5.0966E-10 2.7077E-11 1.9363E-11
5.6234E+03 5.9696E-10 3.3795E-10 1.7863E-11 1.2627E-11
6.3096E+03 3.9602E-10 2.2370E-10 1.1794E-11 8.5979E-12
7.0795E+03 2.6199E-10 1.4729E-10 7.7077E-12 5.5177E-12
7.9433E+03 1.7362E-10 9.6861E-11 5.0957E-12 3.5880E-12
8.9125E+03 1.1466E-10 6.3174E-11 3.3659E-12 2.3512E-12
1.0000E+04 7.5545E-11 4.1211E-11 2.1935E-12 1.4981E-12
