average flux in [cosZ = 0.70 --  0.80, phi_Az =   0 -- 360]
Enu        NuMu       NuMubar    NuE        NuEbar  
1.0000E-01 8.6796E+03 8.8204E+03 4.2379E+03 4.1452E+03
1.1220E-01 7.8133E+03 7.9151E+03 3.8156E+03 3.6995E+03
1.2589E-01 6.9874E+03 7.0567E+03 3.4029E+03 3.2654E+03
1.4125E-01 6.1994E+03 6.2358E+03 3.0068E+03 2.8540E+03
1.5849E-01 5.4341E+03 5.4555E+03 2.6291E+03 2.4691E+03
1.7783E-01 4.7099E+03 4.7174E+03 2.2762E+03 2.1164E+03
1.9953E-01 4.0348E+03 4.0298E+03 1.9547E+03 1.7954E+03
2.2387E-01 3.4118E+03 3.3960E+03 1.6615E+03 1.5079E+03
2.5119E-01 2.8488E+03 2.8309E+03 1.3972E+03 1.2544E+03
2.8184E-01 2.3552E+03 2.3355E+03 1.1623E+03 1.0283E+03
3.1623E-01 1.9270E+03 1.9043E+03 9.5436E+02 8.3487E+02
3.5481E-01 1.5584E+03 1.5367E+03 7.7448E+02 6.7087E+02
3.9811E-01 1.2485E+03 1.2279E+03 6.2290E+02 5.3316E+02
4.4668E-01 9.9068E+02 9.7106E+02 4.9639E+02 4.1881E+02
5.0119E-01 7.7843E+02 7.5951E+02 3.9011E+02 3.2622E+02
5.6234E-01 6.0680E+02 5.8870E+02 3.0351E+02 2.5164E+02
6.3096E-01 4.6874E+02 4.5252E+02 2.3406E+02 1.9194E+02
7.0795E-01 3.5847E+02 3.4436E+02 1.7860E+02 1.4505E+02
7.9433E-01 2.7252E+02 2.6042E+02 1.3484E+02 1.0849E+02
8.9125E-01 2.0622E+02 1.9591E+02 1.0117E+02 8.0748E+01
1.0000E+00 1.5540E+02 1.4664E+02 7.5273E+01 5.9736E+01
1.1220E+00 1.1667E+02 1.0920E+02 5.5458E+01 4.3647E+01
1.2589E+00 8.7169E+01 8.0816E+01 4.0623E+01 3.1775E+01
1.4125E+00 6.4934E+01 5.9606E+01 2.9538E+01 2.3078E+01
1.5849E+00 4.8323E+01 4.3795E+01 2.1291E+01 1.6581E+01
1.7783E+00 3.5682E+01 3.2028E+01 1.5325E+01 1.1821E+01
1.9953E+00 2.6141E+01 2.3258E+01 1.0978E+01 8.4058E+00
2.2387E+00 1.9126E+01 1.6841E+01 7.7278E+00 5.9635E+00
2.5119E+00 1.3967E+01 1.2152E+01 5.4484E+00 4.1882E+00
2.8184E+00 1.0181E+01 8.7270E+00 3.8313E+00 2.9096E+00
3.1623E+00 7.4075E+00 6.2869E+00 2.6620E+00 2.0271E+00
3.5481E+00 5.3620E+00 4.5013E+00 1.8446E+00 1.4003E+00
3.9811E+00 3.8685E+00 3.2199E+00 1.2697E+00 9.6024E-01
4.4668E+00 2.7902E+00 2.3029E+00 8.7306E-01 6.5749E-01
5.0119E+00 2.0088E+00 1.6440E+00 5.9662E-01 4.5108E-01
5.6234E+00 1.4435E+00 1.1695E+00 4.0575E-01 3.0725E-01
6.3096E+00 1.0373E+00 8.3200E-01 2.7575E-01 2.0858E-01
7.0795E+00 7.4400E-01 5.9164E-01 1.8624E-01 1.4136E-01
7.9433E+00 5.3297E-01 4.1930E-01 1.2552E-01 9.5509E-02
8.9125E+00 3.8227E-01 2.9719E-01 8.4007E-02 6.4293E-02
1.0000E+01 2.7186E-01 2.1108E-01 5.6552E-02 4.2754E-02
1.1220E+01 1.9364E-01 1.4935E-01 3.7938E-02 2.8699E-02
1.2589E+01 1.3784E-01 1.0583E-01 2.5400E-02 1.9200E-02
1.4125E+01 9.8298E-02 7.5031E-02 1.6890E-02 1.2857E-02
1.5849E+01 6.9828E-02 5.3125E-02 1.1180E-02 8.6192E-03
1.7783E+01 4.9735E-02 3.7591E-02 7.4770E-03 5.7368E-03
1.9953E+01 3.5494E-02 2.6590E-02 4.9529E-03 3.8189E-03
2.2387E+01 2.5194E-02 1.8742E-02 3.3057E-03 2.5615E-03
2.5119E+01 1.7898E-02 1.3288E-02 2.2008E-03 1.7095E-03
2.8184E+01 1.2703E-02 9.4325E-03 1.4524E-03 1.1476E-03
3.1623E+01 9.0004E-03 6.5956E-03 9.6938E-04 7.5976E-04
3.5481E+01 6.3771E-03 4.6497E-03 6.4538E-04 5.0911E-04
3.9811E+01 4.5087E-03 3.2743E-03 4.2923E-04 3.4054E-04
4.4668E+01 3.1862E-03 2.3029E-03 2.8679E-04 2.2714E-04
5.0119E+01 2.2492E-03 1.6141E-03 1.9146E-04 1.5196E-04
5.6234E+01 1.5864E-03 1.1330E-03 1.2805E-04 1.0214E-04
6.3096E+01 1.1196E-03 7.9477E-04 8.5815E-05 6.8626E-05
7.0795E+01 7.8780E-04 5.5529E-04 5.7275E-05 4.6336E-05
7.9433E+01 5.5229E-04 3.8746E-04 3.8291E-05 3.1354E-05
8.9125E+01 3.8725E-04 2.7063E-04 2.6024E-05 2.0911E-05
1.0000E+02 2.7170E-04 1.8885E-04 1.7357E-05 1.4093E-05
1.1220E+02 1.9053E-04 1.3124E-04 1.1704E-05 9.5399E-06
1.2589E+02 1.3335E-04 9.1341E-05 7.9233E-06 6.4266E-06
1.4125E+02 9.3312E-05 6.3581E-05 5.3046E-06 4.3254E-06
1.5849E+02 6.5265E-05 4.4123E-05 3.5790E-06 2.9234E-06
1.7783E+02 4.5592E-05 3.0617E-05 2.4349E-06 1.9685E-06
1.9953E+02 3.1899E-05 2.1252E-05 1.6358E-06 1.3295E-06
2.2387E+02 2.2210E-05 1.4709E-05 1.1085E-06 8.9840E-07
2.5119E+02 1.5456E-05 1.0179E-05 7.5723E-07 6.0591E-07
2.8184E+02 1.0745E-05 7.0404E-06 5.1441E-07 4.0822E-07
3.1623E+02 7.5094E-06 4.8721E-06 3.4234E-07 2.7524E-07
3.5481E+02 5.2078E-06 3.3552E-06 2.3179E-07 1.8534E-07
3.9811E+02 3.6125E-06 2.3067E-06 1.5698E-07 1.2476E-07
4.4668E+02 2.5009E-06 1.5885E-06 1.0583E-07 8.4340E-08
5.0119E+02 1.7305E-06 1.0941E-06 7.1560E-08 5.6394E-08
5.6234E+02 1.2022E-06 7.5423E-07 4.7951E-08 3.7893E-08
6.3096E+02 8.2427E-07 5.1329E-07 3.2256E-08 2.5239E-08
7.0795E+02 5.6695E-07 3.5080E-07 2.1894E-08 1.6772E-08
7.9433E+02 3.8928E-07 2.3978E-07 1.4673E-08 1.1251E-08
8.9125E+02 2.6712E-07 1.6336E-07 9.7435E-09 7.5333E-09
1.0000E+03 1.8420E-07 1.1172E-07 6.5514E-09 5.0125E-09
1.1220E+03 1.2445E-07 7.5228E-08 4.3769E-09 3.3459E-09
1.2589E+03 8.4582E-08 5.0965E-08 2.9181E-09 2.1966E-09
1.4125E+03 5.7313E-08 3.4309E-08 1.9168E-09 1.4373E-09
1.5849E+03 3.8881E-08 2.2990E-08 1.2780E-09 9.6190E-10
1.7783E+03 2.6304E-08 1.5464E-08 8.6392E-10 6.3306E-10
1.9953E+03 1.7712E-08 1.0433E-08 5.7459E-10 4.2660E-10
2.2387E+03 1.1897E-08 6.9605E-09 3.7741E-10 2.8599E-10
2.5119E+03 7.9566E-09 4.6481E-09 2.5190E-10 1.8539E-10
2.8184E+03 5.3188E-09 3.1062E-09 1.6818E-10 1.2193E-10
3.1623E+03 3.6648E-09 2.1194E-09 1.1025E-10 8.0303E-11
3.5481E+03 2.3710E-09 1.3707E-09 7.1595E-11 5.2322E-11
3.9811E+03 1.5784E-09 9.0588E-10 4.7588E-11 3.4339E-11
4.4668E+03 1.0452E-09 5.9813E-10 3.1689E-11 2.1770E-11
5.0119E+03 6.9344E-10 3.9503E-10 2.0650E-11 1.4355E-11
5.6234E+03 4.6076E-10 2.6052E-10 1.3586E-11 9.6966E-12
6.3096E+03 3.0366E-10 1.7086E-10 8.7978E-12 6.1741E-12
7.0795E+03 2.0094E-10 1.1240E-10 5.8547E-12 3.9973E-12
7.9433E+03 1.3260E-10 7.3807E-11 3.8827E-12 2.6798E-12
8.9125E+03 8.7136E-11 4.8198E-11 2.4661E-12 1.7355E-12
1.0000E+04 5.6931E-11 3.1771E-11 1.6429E-12 1.1099E-12
